COLD SIDE (2019)
Flowrate, Pressure drop
litres/s, bar
0.6917   0.1475
0.6750   0.1619
0.6292   0.2178
0.5917   0.2607
0.5458   0.3041
0.5083   0.3417
0.4625   0.3756
0.4250   0.4118
0.3792   0.4423
0.3417   0.4711
0.2958   0.5031
0.2542   0.5297
0.2125   0.5561
0.1708   0.5823